freq,psd_x,psd_y,psd_z,psd_xyz,zv(61.4),mzv(62.0),ei(74.4),2hump_ei(92.4),3hump_ei(111.0)
0.0,0.000e+00,0.000e+00,0.000e+00,0.000e+00,1.000,1.000,1.000,1.000,1.000
1.5,0.000e+00,0.000e+00,0.000e+00,0.000e+00,0.996,0.994,0.993,0.992,0.991
3.1,0.000e+00,0.000e+00,0.000e+00,0.000e+00,0.990,0.986,0.984,0.981,0.979
4.6,0.000e+00,0.000e+00,0.000e+00,0.000e+00,0.983,0.976,0.973,0.969,0.965
6.2,2.088e+02,4.335e+00,6.725e+00,2.199e+02,0.974,0.964,0.960,0.954,0.949
7.7,2.727e+02,3.272e+00,5.332e+00,2.813e+02,0.964,0.951,0.945,0.937,0.931
9.3,3.321e+02,2.710e+00,4.532e+00,3.393e+02,0.952,0.936,0.929,0.918,0.911
10.8,3.977e+02,2.520e+00,3.907e+00,4.041e+02,0.940,0.919,0.910,0.897,0.889
12.4,4.768e+02,2.202e+00,3.833e+00,4.828e+02,0.925,0.900,0.890,0.875,0.865
13.9,5.587e+02,2.034e+00,3.674e+00,5.644e+02,0.910,0.880,0.868,0.851,0.839
15.5,5.814e+02,1.838e+00,3.184e+00,5.864e+02,0.892,0.858,0.844,0.825,0.812
17.0,5.617e+02,1.664e+00,2.825e+00,5.662e+02,0.874,0.835,0.819,0.798,0.784
18.6,6.291e+02,1.515e+00,2.501e+00,6.331e+02,0.855,0.811,0.793,0.770,0.754
20.1,7.380e+02,1.445e+00,2.398e+00,7.419e+02,0.834,0.786,0.765,0.741,0.723
21.7,8.643e+02,1.671e+00,2.407e+00,8.684e+02,0.812,0.759,0.737,0.710,0.692
23.2,1.006e+03,1.663e+00,2.599e+00,1.011e+03,0.789,0.731,0.707,0.679,0.660
24.8,1.163e+03,1.641e+00,2.723e+00,1.168e+03,0.765,0.702,0.677,0.647,0.627
26.3,1.297e+03,1.786e+00,2.716e+00,1.301e+03,0.740,0.673,0.646,0.615,0.594
27.9,1.428e+03,2.072e+00,3.023e+00,1.433e+03,0.713,0.643,0.614,0.582,0.560
29.4,1.629e+03,2.381e+00,3.519e+00,1.635e+03,0.686,0.612,0.582,0.549,0.527
31.0,1.851e+03,2.327e+00,3.857e+00,1.857e+03,0.658,0.581,0.550,0.516,0.493
32.5,2.116e+03,2.212e+00,4.503e+00,2.122e+03,0.629,0.549,0.517,0.484,0.460
34.1,2.428e+03,2.473e+00,5.269e+00,2.436e+03,0.600,0.517,0.485,0.451,0.427
35.6,2.792e+03,2.991e+00,6.053e+00,2.801e+03,0.569,0.484,0.452,0.419,0.395
37.2,3.201e+03,4.219e+00,6.063e+00,3.212e+03,0.538,0.452,0.420,0.387,0.364
38.7,3.595e+03,6.108e+00,5.502e+00,3.606e+03,0.506,0.419,0.388,0.355,0.333
40.3,3.999e+03,7.547e+00,5.542e+00,4.012e+03,0.474,0.387,0.356,0.325,0.303
41.8,4.523e+03,9.874e+00,5.910e+00,4.539e+03,0.441,0.355,0.325,0.295,0.274
43.4,5.234e+03,1.348e+01,6.243e+00,5.253e+03,0.408,0.323,0.295,0.267,0.246
44.9,6.135e+03,1.818e+01,6.952e+00,6.160e+03,0.374,0.292,0.265,0.239,0.220
46.5,7.102e+03,2.387e+01,9.117e+00,7.135e+03,0.340,0.261,0.237,0.213,0.195
48.0,8.457e+03,2.761e+01,1.581e+01,8.501e+03,0.306,0.231,0.209,0.187,0.171
49.6,1.057e+04,3.137e+01,2.362e+01,1.063e+04,0.271,0.202,0.183,0.164,0.149
51.1,1.359e+04,3.770e+01,3.144e+01,1.366e+04,0.236,0.173,0.158,0.141,0.129
52.7,1.807e+04,3.901e+01,4.006e+01,1.815e+04,0.201,0.146,0.134,0.120,0.110
54.2,2.486e+04,4.300e+01,4.053e+01,2.495e+04,0.167,0.119,0.112,0.101,0.093
55.8,3.345e+04,6.402e+01,5.517e+01,3.357e+04,0.132,0.094,0.091,0.083,0.078
57.3,4.839e+04,1.042e+02,1.089e+02,4.860e+04,0.103,0.070,0.072,0.068,0.065
58.9,6.431e+04,1.646e+02,1.884e+02,6.466e+04,0.080,0.052,0.055,0.054,0.054
60.4,7.029e+04,2.438e+02,2.789e+02,7.081e+04,0.065,0.040,0.040,0.043,0.046
62.0,6.560e+04,2.477e+02,3.148e+02,6.617e+04,0.063,0.035,0.028,0.034,0.041
63.5,5.746e+04,1.781e+02,3.031e+02,5.794e+04,0.075,0.037,0.021,0.029,0.038
65.1,4.416e+04,1.176e+02,2.420e+02,4.452e+04,0.096,0.045,0.020,0.027,0.037
66.6,3.211e+04,8.662e+01,1.771e+02,3.238e+04,0.121,0.057,0.024,0.029,0.037
68.2,2.352e+04,6.944e+01,1.363e+02,2.373e+04,0.154,0.071,0.030,0.031,0.038
69.7,1.741e+04,6.705e+01,9.977e+01,1.757e+04,0.187,0.084,0.034,0.034,0.039
71.3,1.288e+04,6.067e+01,7.620e+01,1.301e+04,0.219,0.096,0.037,0.036,0.040
72.8,9.848e+03,6.673e+01,7.782e+01,9.993e+03,0.251,0.106,0.039,0.037,0.040
74.4,7.483e+03,6.797e+01,1.026e+02,7.654e+03,0.282,0.114,0.040,0.038,0.040
75.9,5.883e+03,4.644e+01,1.039e+02,6.033e+03,0.313,0.121,0.038,0.038,0.039
77.5,4.984e+03,6.829e+01,5.675e+01,5.109e+03,0.343,0.127,0.036,0.037,0.037
79.0,4.246e+03,6.279e+01,3.388e+01,4.343e+03,0.373,0.131,0.032,0.036,0.035
80.6,3.719e+03,3.563e+01,4.593e+01,3.801e+03,0.401,0.133,0.030,0.034,0.033
82.1,3.104e+03,3.799e+01,9.134e+01,3.233e+03,0.429,0.133,0.028,0.031,0.030
83.7,2.848e+03,5.310e+01,1.402e+02,3.041e+03,0.456,0.132,0.028,0.027,0.026
85.2,3.037e+03,6.422e+01,1.423e+02,3.243e+03,0.483,0.130,0.030,0.023,0.023
86.7,2.831e+03,5.700e+01,1.170e+02,3.005e+03,0.508,0.126,0.034,0.019,0.020
88.3,2.434e+03,4.368e+01,1.008e+02,2.579e+03,0.532,0.120,0.040,0.015,0.016
89.8,2.105e+03,3.725e+01,9.805e+01,2.240e+03,0.556,0.113,0.048,0.012,0.014
91.4,1.750e+03,3.512e+01,9.843e+01,1.884e+03,0.578,0.105,0.060,0.011,0.012
92.9,2.135e+03,6.096e+01,1.792e+02,2.375e+03,0.600,0.097,0.077,0.011,0.012
94.5,2.712e+03,1.293e+02,2.212e+02,3.062e+03,0.620,0.093,0.095,0.012,0.013
96.0,3.074e+03,1.880e+02,2.018e+02,3.464e+03,0.639,0.089,0.114,0.013,0.015
97.6,3.317e+03,2.153e+02,1.690e+02,3.702e+03,0.657,0.085,0.133,0.017,0.017
99.1,3.395e+03,2.323e+02,1.398e+02,3.767e+03,0.674,0.082,0.153,0.021,0.020
100.7,3.276e+03,2.357e+02,1.200e+02,3.632e+03,0.690,0.080,0.174,0.024,0.022
102.2,3.057e+03,2.267e+02,1.060e+02,3.390e+03,0.704,0.081,0.195,0.027,0.025
103.8,2.808e+03,2.147e+02,9.646e+01,3.119e+03,0.718,0.083,0.217,0.029,0.027
105.3,2.515e+03,2.107e+02,9.379e+01,2.820e+03,0.730,0.088,0.239,0.031,0.028
106.9,2.194e+03,2.199e+02,1.001e+02,2.514e+03,0.741,0.094,0.261,0.032,0.029
108.4,1.917e+03,2.177e+02,1.027e+02,2.237e+03,0.751,0.103,0.283,0.032,0.030
110.0,1.721e+03,1.573e+02,7.909e+01,1.957e+03,0.759,0.113,0.305,0.031,0.030
111.5,1.640e+03,1.083e+02,5.637e+01,1.805e+03,0.766,0.124,0.328,0.029,0.030
113.1,1.655e+03,1.223e+02,5.527e+01,1.833e+03,0.772,0.136,0.349,0.027,0.029
114.6,1.725e+03,1.566e+02,6.216e+01,1.944e+03,0.777,0.156,0.371,0.027,0.028
116.2,1.752e+03,1.859e+02,7.384e+01,2.012e+03,0.781,0.179,0.392,0.027,0.026
117.7,1.731e+03,2.086e+02,9.087e+01,2.031e+03,0.783,0.201,0.413,0.027,0.024
119.3,1.699e+03,2.329e+02,1.116e+02,2.044e+03,0.784,0.224,0.433,0.028,0.022
120.8,1.523e+03,2.371e+02,1.457e+02,1.906e+03,0.784,0.247,0.452,0.029,0.019
122.4,1.488e+03,2.508e+02,1.768e+02,1.915e+03,0.782,0.270,0.470,0.032,0.016
123.9,1.597e+03,2.834e+02,1.658e+02,2.047e+03,0.780,0.293,0.488,0.035,0.014
125.5,1.596e+03,3.081e+02,1.623e+02,2.066e+03,0.776,0.315,0.505,0.039,0.013
127.0,1.579e+03,3.105e+02,1.748e+02,2.065e+03,0.771,0.338,0.520,0.044,0.012
128.6,1.592e+03,3.257e+02,1.740e+02,2.092e+03,0.765,0.360,0.535,0.052,0.012
130.1,1.542e+03,3.502e+02,1.917e+02,2.084e+03,0.757,0.381,0.549,0.065,0.012
131.7,1.308e+03,3.331e+02,1.913e+02,1.832e+03,0.749,0.402,0.561,0.078,0.013
133.2,5.462e+02,1.538e+02,9.383e+01,7.939e+02,0.739,0.422,0.572,0.093,0.013
134.8,4.640e+01,2.433e+01,2.248e+01,9.321e+01,0.729,0.442,0.582,0.108,0.014
136.3,2.206e+01,1.532e+01,2.265e+01,6.002e+01,0.717,0.461,0.591,0.123,0.015
137.9,2.329e+01,1.105e+01,2.996e+01,6.430e+01,0.704,0.479,0.598,0.139,0.018
139.4,2.463e+01,8.964e+00,3.395e+01,6.755e+01,0.690,0.496,0.604,0.156,0.020
141.0,2.786e+01,9.378e+00,3.721e+01,7.444e+01,0.676,0.513,0.609,0.173,0.022
142.5,3.633e+01,1.261e+01,4.053e+01,8.947e+01,0.660,0.528,0.612,0.190,0.023
144.1,4.379e+01,1.598e+01,4.231e+01,1.021e+02,0.643,0.543,0.614,0.207,0.025
145.6,5.105e+01,2.067e+01,4.315e+01,1.149e+02,0.626,0.556,0.614,0.225,0.025
147.2,6.289e+01,2.962e+01,4.364e+01,1.362e+02,0.607,0.568,0.613,0.242,0.025
148.7,6.655e+01,3.233e+01,3.606e+01,1.349e+02,0.588,0.580,0.611,0.260,0.024
150.3,5.700e+01,2.814e+01,3.465e+01,1.198e+02,0.569,0.590,0.607,0.277,0.023
151.8,6.289e+01,3.228e+01,3.791e+01,1.331e+02,0.548,0.598,0.602,0.294,0.023
153.4,6.616e+01,3.320e+01,3.316e+01,1.325e+02,0.527,0.606,0.596,0.311,0.024
154.9,5.926e+01,3.666e+01,3.222e+01,1.281e+02,0.505,0.612,0.588,0.327,0.025
156.5,6.795e+01,4.655e+01,3.743e+01,1.519e+02,0.483,0.618,0.580,0.343,0.026
158.0,6.588e+01,4.896e+01,3.573e+01,1.506e+02,0.460,0.621,0.570,0.358,0.027
159.6,7.485e+01,5.710e+01,3.807e+01,1.700e+02,0.437,0.624,0.559,0.373,0.028
161.1,7.966e+01,5.623e+01,3.415e+01,1.700e+02,0.413,0.625,0.547,0.387,0.030
162.7,7.561e+01,5.371e+01,2.963e+01,1.589e+02,0.389,0.625,0.534,0.400,0.033
164.2,8.128e+01,5.807e+01,2.858e+01,1.679e+02,0.373,0.624,0.520,0.412,0.036
165.8,8.532e+01,6.033e+01,2.603e+01,1.717e+02,0.361,0.622,0.505,0.423,0.039
167.3,9.709e+01,6.656e+01,2.447e+01,1.881e+02,0.349,0.618,0.489,0.434,0.043
168.9,1.108e+02,7.626e+01,2.492e+01,2.120e+02,0.338,0.614,0.472,0.443,0.053
170.4,1.249e+02,9.050e+01,2.907e+01,2.445e+02,0.327,0.608,0.455,0.452,0.064
171.9,1.367e+02,1.064e+02,3.481e+01,2.778e+02,0.318,0.600,0.437,0.459,0.075
173.5,1.504e+02,1.237e+02,4.044e+01,3.145e+02,0.309,0.592,0.419,0.465,0.087
175.0,1.638e+02,1.414e+02,4.587e+01,3.510e+02,0.302,0.583,0.400,0.470,0.100
176.6,1.616e+02,1.476e+02,4.715e+01,3.563e+02,0.295,0.573,0.381,0.474,0.112
178.1,1.595e+02,1.512e+02,4.886e+01,3.596e+02,0.290,0.561,0.362,0.477,0.125
179.7,1.630e+02,1.599e+02,5.171e+01,3.746e+02,0.286,0.549,0.343,0.479,0.139
181.2,1.638e+02,1.673e+02,5.038e+01,3.815e+02,0.284,0.536,0.323,0.479,0.153
182.8,1.821e+02,1.891e+02,5.378e+01,4.250e+02,0.282,0.522,0.303,0.478,0.166
184.3,1.798e+02,1.902e+02,5.142e+01,4.215e+02,0.282,0.507,0.284,0.476,0.180
185.9,1.955e+02,2.053e+02,5.329e+01,4.541e+02,0.284,0.492,0.264,0.473,0.194
187.4,1.993e+02,2.041e+02,5.351e+01,4.569e+02,0.287,0.475,0.245,0.469,0.208
189.0,2.189e+02,2.097e+02,5.840e+01,4.871e+02,0.290,0.459,0.227,0.464,0.222
190.5,2.544e+02,2.334e+02,6.901e+01,5.568e+02,0.295,0.441,0.208,0.457,0.235
192.1,2.926e+02,2.655e+02,8.127e+01,6.394e+02,0.301,0.424,0.190,0.450,0.248
193.6,3.265e+02,2.792e+02,8.876e+01,6.945e+02,0.308,0.406,0.173,0.441,0.261
195.2,3.473e+02,2.717e+02,9.594e+01,7.149e+02,0.315,0.387,0.161,0.432,0.273
196.7,3.734e+02,2.612e+02,1.114e+02,7.460e+02,0.323,0.368,0.153,0.422,0.285
198.3,4.119e+02,2.636e+02,1.315e+02,8.070e+02,0.331,0.350,0.146,0.411,0.297
199.8,4.555e+02,2.653e+02,1.548e+02,8.756e+02,0.340,0.331,0.139,0.399,0.307
