freq,psd_x,psd_y,psd_z,psd_xyz,zv(60.6),mzv(61.6),ei(73.6),2hump_ei(91.6),3hump_ei(110.0)
0.0,0.000e+00,0.000e+00,0.000e+00,0.000e+00,1.000,1.000,1.000,1.000,1.000
1.5,0.000e+00,0.000e+00,0.000e+00,0.000e+00,0.996,0.994,0.993,0.992,0.991
3.0,0.000e+00,0.000e+00,0.000e+00,0.000e+00,0.990,0.987,0.985,0.982,0.980
4.5,0.000e+00,0.000e+00,0.000e+00,0.000e+00,0.984,0.977,0.974,0.970,0.967
5.9,2.309e+02,5.674e+01,5.893e+01,3.466e+02,0.975,0.966,0.962,0.956,0.951
7.4,2.867e+02,4.186e+01,4.372e+01,3.723e+02,0.966,0.953,0.948,0.940,0.934
8.9,3.333e+02,3.025e+01,3.435e+01,3.979e+02,0.954,0.939,0.932,0.922,0.915
10.4,3.897e+02,2.179e+01,2.698e+01,4.384e+02,0.942,0.923,0.914,0.902,0.894
11.9,4.396e+02,1.589e+01,2.056e+01,4.761e+02,0.928,0.905,0.894,0.881,0.871
13.4,5.003e+02,1.489e+01,1.834e+01,5.335e+02,0.913,0.886,0.874,0.858,0.846
14.9,5.891e+02,1.266e+01,1.606e+01,6.178e+02,0.897,0.866,0.851,0.833,0.821
16.4,6.850e+02,1.133e+01,1.429e+01,7.107e+02,0.880,0.844,0.827,0.808,0.794
17.8,7.461e+02,1.005e+01,1.208e+01,7.682e+02,0.861,0.821,0.802,0.781,0.765
19.3,7.615e+02,8.794e+00,1.136e+01,7.817e+02,0.841,0.797,0.776,0.753,0.736
20.8,7.888e+02,8.364e+00,1.020e+01,8.074e+02,0.821,0.772,0.749,0.724,0.706
22.3,8.643e+02,8.363e+00,9.826e+00,8.824e+02,0.799,0.745,0.721,0.694,0.675
23.8,9.592e+02,9.124e+00,1.010e+01,9.784e+02,0.776,0.718,0.692,0.663,0.643
25.3,1.075e+03,8.619e+00,9.416e+00,1.093e+03,0.751,0.690,0.662,0.632,0.611
26.8,1.204e+03,8.105e+00,9.230e+00,1.221e+03,0.726,0.661,0.631,0.601,0.579
28.3,1.319e+03,9.363e+00,8.585e+00,1.337e+03,0.701,0.632,0.600,0.569,0.547
29.7,1.423e+03,9.687e+00,9.031e+00,1.442e+03,0.674,0.602,0.569,0.537,0.514
31.2,1.572e+03,1.052e+01,9.590e+00,1.592e+03,0.646,0.571,0.538,0.505,0.482
32.7,1.746e+03,1.235e+01,1.105e+01,1.769e+03,0.618,0.540,0.506,0.474,0.450
34.2,1.936e+03,1.415e+01,1.302e+01,1.964e+03,0.589,0.509,0.474,0.442,0.418
35.7,2.179e+03,1.670e+01,1.451e+01,2.211e+03,0.559,0.478,0.443,0.411,0.387
37.2,2.455e+03,2.017e+01,1.376e+01,2.489e+03,0.528,0.447,0.411,0.380,0.357
38.7,2.731e+03,2.326e+01,1.383e+01,2.768e+03,0.497,0.415,0.380,0.350,0.327
40.2,3.109e+03,2.355e+01,1.563e+01,3.148e+03,0.465,0.384,0.350,0.321,0.298
41.6,3.600e+03,2.933e+01,2.113e+01,3.651e+03,0.433,0.353,0.320,0.292,0.271
43.1,4.240e+03,4.290e+01,3.019e+01,4.313e+03,0.401,0.323,0.291,0.264,0.244
44.6,4.978e+03,3.734e+01,2.177e+01,5.037e+03,0.368,0.293,0.262,0.238,0.218
46.1,5.931e+03,3.593e+01,2.053e+01,5.988e+03,0.335,0.263,0.234,0.212,0.194
47.6,7.138e+03,3.656e+01,1.809e+01,7.192e+03,0.301,0.234,0.208,0.188,0.171
49.1,8.803e+03,3.837e+01,1.822e+01,8.859e+03,0.267,0.205,0.182,0.165,0.150
50.6,1.122e+04,5.290e+01,2.148e+01,1.130e+04,0.234,0.178,0.158,0.143,0.130
52.1,1.471e+04,8.022e+01,3.318e+01,1.482e+04,0.200,0.151,0.135,0.122,0.112
53.5,2.081e+04,1.397e+02,5.701e+01,2.100e+04,0.166,0.125,0.113,0.104,0.095
55.0,3.221e+04,2.816e+02,9.941e+01,3.259e+04,0.133,0.100,0.093,0.086,0.080
56.5,5.735e+04,7.963e+02,1.511e+02,5.829e+04,0.104,0.077,0.074,0.071,0.067
58.0,9.293e+04,1.860e+03,1.361e+02,9.492e+04,0.081,0.057,0.057,0.057,0.057
59.5,1.064e+05,2.154e+03,7.507e+01,1.086e+05,0.066,0.043,0.042,0.045,0.048
61.0,9.721e+04,1.848e+03,5.651e+01,9.911e+04,0.063,0.036,0.030,0.036,0.042
62.5,7.888e+04,1.463e+03,4.114e+01,8.038e+04,0.073,0.035,0.022,0.030,0.038
64.0,5.967e+04,1.076e+03,2.374e+01,6.077e+04,0.092,0.041,0.020,0.028,0.037
65.4,4.401e+04,8.023e+02,3.028e+01,4.484e+04,0.115,0.050,0.023,0.028,0.037
66.9,3.352e+04,6.442e+02,2.648e+01,3.419e+04,0.147,0.064,0.028,0.030,0.038
68.4,2.713e+04,4.992e+02,2.003e+01,2.765e+04,0.178,0.077,0.033,0.032,0.039
69.9,2.165e+04,3.649e+02,1.627e+01,2.204e+04,0.210,0.089,0.036,0.035,0.039
71.4,1.768e+04,3.289e+02,1.411e+01,1.803e+04,0.241,0.100,0.039,0.037,0.040
72.9,1.500e+04,3.594e+02,1.224e+01,1.537e+04,0.272,0.109,0.040,0.038,0.040
74.4,1.208e+04,3.323e+02,1.686e+01,1.243e+04,0.302,0.117,0.039,0.038,0.039
75.8,9.413e+03,2.835e+02,4.563e+01,9.742e+03,0.331,0.123,0.037,0.038,0.038
77.3,7.327e+03,3.083e+02,6.514e+01,7.700e+03,0.360,0.128,0.034,0.037,0.036
78.8,5.613e+03,3.388e+02,6.019e+01,6.012e+03,0.389,0.131,0.031,0.035,0.034
80.3,4.598e+03,3.831e+02,4.274e+01,5.024e+03,0.416,0.133,0.029,0.033,0.032
81.8,3.765e+03,4.081e+02,2.525e+01,4.199e+03,0.443,0.133,0.028,0.030,0.029
83.3,2.771e+03,3.048e+02,1.161e+01,3.087e+03,0.469,0.132,0.028,0.026,0.026
84.8,2.010e+03,2.370e+02,1.107e+01,2.258e+03,0.494,0.130,0.031,0.023,0.022
86.3,1.539e+03,2.863e+02,1.466e+01,1.840e+03,0.518,0.126,0.035,0.019,0.019
87.7,1.184e+03,4.911e+02,2.610e+01,1.701e+03,0.542,0.120,0.042,0.014,0.016
89.2,9.685e+02,6.460e+02,5.629e+01,1.671e+03,0.564,0.113,0.050,0.012,0.013
90.7,9.046e+02,5.064e+02,7.433e+01,1.485e+03,0.585,0.105,0.064,0.011,0.012
92.2,8.885e+02,3.817e+02,8.748e+01,1.358e+03,0.606,0.098,0.080,0.011,0.012
93.7,9.388e+02,3.845e+02,1.110e+02,1.434e+03,0.625,0.093,0.097,0.012,0.013
95.2,1.156e+03,3.672e+02,1.323e+02,1.655e+03,0.644,0.089,0.116,0.013,0.015
96.7,1.921e+03,2.415e+02,1.135e+02,2.276e+03,0.661,0.085,0.135,0.017,0.017
98.2,3.217e+03,1.155e+02,7.831e+01,3.411e+03,0.677,0.082,0.154,0.021,0.020
99.6,3.920e+03,5.528e+01,6.272e+01,4.038e+03,0.692,0.081,0.174,0.024,0.022
101.1,3.729e+03,2.434e+01,6.373e+01,3.817e+03,0.706,0.080,0.195,0.027,0.024
102.6,3.350e+03,2.425e+01,7.489e+01,3.449e+03,0.719,0.082,0.216,0.029,0.026
104.1,2.973e+03,2.876e+01,8.615e+01,3.088e+03,0.731,0.086,0.237,0.031,0.028
105.6,2.663e+03,3.363e+01,9.287e+01,2.790e+03,0.742,0.092,0.259,0.032,0.029
107.1,2.372e+03,3.791e+01,9.376e+01,2.503e+03,0.751,0.099,0.281,0.032,0.030
108.6,2.219e+03,4.884e+01,8.953e+01,2.357e+03,0.759,0.108,0.302,0.031,0.030
110.1,2.012e+03,9.955e+01,9.396e+01,2.205e+03,0.766,0.118,0.324,0.030,0.030
111.5,1.878e+03,2.183e+02,1.125e+02,2.209e+03,0.772,0.130,0.345,0.028,0.029
113.0,1.892e+03,3.222e+02,1.391e+02,2.354e+03,0.777,0.144,0.366,0.027,0.028
114.5,1.912e+03,3.740e+02,1.487e+02,2.434e+03,0.780,0.165,0.386,0.027,0.027
116.0,1.864e+03,3.826e+02,1.480e+02,2.395e+03,0.783,0.187,0.406,0.027,0.025
117.5,1.775e+03,3.748e+02,1.444e+02,2.294e+03,0.784,0.209,0.426,0.027,0.023
119.0,1.667e+03,3.768e+02,1.388e+02,2.182e+03,0.784,0.231,0.445,0.029,0.021
120.5,1.608e+03,4.041e+02,1.276e+02,2.140e+03,0.783,0.253,0.463,0.030,0.018
122.0,1.530e+03,4.122e+02,1.131e+02,2.055e+03,0.781,0.275,0.481,0.033,0.015
123.4,1.498e+03,3.978e+02,9.770e+01,1.994e+03,0.777,0.297,0.497,0.037,0.014
124.9,1.510e+03,3.915e+02,8.641e+01,1.988e+03,0.772,0.319,0.513,0.041,0.013
126.4,1.512e+03,3.857e+02,7.315e+01,1.971e+03,0.767,0.341,0.528,0.046,0.012
127.9,1.526e+03,4.058e+02,6.054e+01,1.992e+03,0.760,0.362,0.542,0.056,0.012
129.4,1.443e+03,4.155e+02,5.512e+01,1.913e+03,0.752,0.382,0.554,0.068,0.012
130.9,1.314e+03,3.956e+02,5.372e+01,1.763e+03,0.743,0.403,0.566,0.082,0.013
132.4,8.925e+02,3.121e+02,4.084e+01,1.245e+03,0.733,0.422,0.576,0.096,0.013
133.8,1.956e+02,6.738e+01,1.407e+01,2.771e+02,0.722,0.441,0.585,0.110,0.014
135.3,6.241e+01,1.114e+01,9.451e+00,8.301e+01,0.710,0.460,0.593,0.125,0.015
136.8,7.046e+01,9.966e+00,1.057e+01,9.100e+01,0.697,0.477,0.600,0.141,0.018
138.3,6.621e+01,9.835e+00,1.118e+01,8.722e+01,0.684,0.494,0.605,0.157,0.020
139.8,6.504e+01,1.243e+01,1.198e+01,8.944e+01,0.669,0.510,0.609,0.173,0.022
141.3,6.283e+01,1.775e+01,1.417e+01,9.475e+01,0.653,0.525,0.612,0.190,0.024
142.8,6.668e+01,1.980e+01,1.668e+01,1.032e+02,0.637,0.539,0.614,0.207,0.025
144.3,8.003e+01,1.557e+01,2.021e+01,1.158e+02,0.619,0.553,0.614,0.224,0.025
145.7,9.005e+01,1.299e+01,2.486e+01,1.279e+02,0.601,0.565,0.613,0.241,0.025
147.2,9.058e+01,1.263e+01,2.476e+01,1.280e+02,0.583,0.576,0.611,0.257,0.024
148.7,9.076e+01,1.217e+01,2.523e+01,1.282e+02,0.563,0.586,0.607,0.274,0.023
150.2,9.172e+01,1.165e+01,2.816e+01,1.315e+02,0.543,0.595,0.602,0.291,0.023
151.7,9.096e+01,1.258e+01,3.246e+01,1.360e+02,0.522,0.603,0.596,0.307,0.024
153.2,9.489e+01,1.522e+01,3.840e+01,1.485e+02,0.501,0.610,0.589,0.323,0.025
154.7,1.042e+02,1.930e+01,4.802e+01,1.715e+02,0.479,0.615,0.580,0.338,0.025
156.2,1.056e+02,2.664e+01,5.678e+01,1.890e+02,0.457,0.620,0.571,0.353,0.027
157.6,9.065e+01,2.964e+01,5.572e+01,1.760e+02,0.434,0.623,0.560,0.368,0.028
159.1,7.004e+01,2.784e+01,4.367e+01,1.416e+02,0.411,0.625,0.549,0.381,0.030
160.6,7.590e+01,3.395e+01,4.448e+01,1.543e+02,0.388,0.626,0.536,0.394,0.032
162.1,9.817e+01,4.031e+01,6.085e+01,1.993e+02,0.373,0.625,0.523,0.407,0.035
163.6,1.164e+02,4.209e+01,7.267e+01,2.311e+02,0.361,0.624,0.508,0.418,0.038
165.1,1.371e+02,5.056e+01,9.185e+01,2.795e+02,0.349,0.621,0.493,0.429,0.041
166.6,1.464e+02,6.157e+01,1.013e+02,3.092e+02,0.338,0.617,0.477,0.438,0.048
168.1,1.595e+02,7.195e+01,1.042e+02,3.356e+02,0.328,0.612,0.461,0.447,0.058
169.5,1.751e+02,7.592e+01,1.113e+02,3.622e+02,0.319,0.606,0.444,0.455,0.069
171.0,1.887e+02,7.799e+01,1.203e+02,3.869e+02,0.310,0.599,0.426,0.462,0.080
172.5,1.858e+02,7.705e+01,1.279e+02,3.908e+02,0.303,0.591,0.408,0.467,0.092
174.0,1.854e+02,7.579e+01,1.370e+02,3.983e+02,0.296,0.582,0.390,0.472,0.104
175.5,1.963e+02,8.021e+01,1.479e+02,4.244e+02,0.291,0.572,0.371,0.475,0.116
177.0,2.263e+02,9.019e+01,1.688e+02,4.853e+02,0.287,0.561,0.353,0.478,0.129
178.5,2.495e+02,1.066e+02,1.906e+02,5.466e+02,0.284,0.550,0.334,0.479,0.142
180.0,2.303e+02,1.074e+02,1.773e+02,5.150e+02,0.283,0.537,0.315,0.479,0.156
181.4,2.064e+02,1.087e+02,1.460e+02,4.610e+02,0.282,0.523,0.296,0.478,0.169
182.9,1.969e+02,1.105e+02,1.330e+02,4.404e+02,0.283,0.509,0.277,0.476,0.182
184.4,1.682e+02,9.333e+01,1.142e+02,3.757e+02,0.285,0.494,0.258,0.473,0.196
185.9,1.568e+02,7.939e+01,1.014e+02,3.376e+02,0.289,0.479,0.239,0.469,0.209
187.4,1.851e+02,6.509e+01,1.147e+02,3.649e+02,0.293,0.463,0.221,0.463,0.223
188.9,1.989e+02,5.556e+01,1.193e+02,3.738e+02,0.298,0.446,0.203,0.457,0.236
190.4,1.995e+02,6.582e+01,1.137e+02,3.789e+02,0.304,0.429,0.186,0.450,0.248
191.9,2.021e+02,7.963e+01,1.149e+02,3.967e+02,0.311,0.412,0.169,0.442,0.261
193.3,2.654e+02,9.317e+01,1.529e+02,5.114e+02,0.319,0.394,0.160,0.433,0.273
194.8,3.720e+02,1.023e+02,2.393e+02,7.136e+02,0.327,0.376,0.152,0.423,0.284
196.3,4.054e+02,9.373e+01,2.809e+02,7.801e+02,0.335,0.358,0.145,0.413,0.295
197.8,4.317e+02,8.660e+01,3.008e+02,8.191e+02,0.344,0.340,0.138,0.401,0.306
199.3,4.335e+02,8.341e+01,2.980e+02,8.150e+02,0.352,0.321,0.132,0.390,0.316
