freq,psd_x,psd_y,psd_z,psd_xyz
0.0,1.650e+01,3.727e+01,5.398e+02,5.935e+02
1.6,2.579e+01,7.349e+01,3.241e+02,4.234e+02
3.1,2.041e+01,7.241e+01,3.320e+01,1.260e+02
4.7,2.078e+01,5.421e+01,3.722e+02,4.472e+02
6.2,2.197e+01,5.632e+01,1.252e+03,1.330e+03
7.8,2.202e+01,6.711e+01,2.071e+03,2.161e+03
9.3,2.717e+01,5.962e+01,3.063e+03,3.150e+03
10.9,2.877e+01,6.536e+01,4.255e+03,4.349e+03
12.5,2.437e+01,6.320e+01,5.720e+03,5.808e+03
14.0,2.611e+01,6.647e+01,7.521e+03,7.614e+03
15.6,3.090e+01,6.611e+01,8.901e+03,8.998e+03
17.1,3.349e+01,6.160e+01,9.767e+03,9.862e+03
18.7,3.247e+01,5.626e+01,1.167e+04,1.175e+04
20.2,3.601e+01,6.323e+01,1.439e+04,1.449e+04
21.8,4.067e+01,5.993e+01,1.757e+04,1.767e+04
23.4,4.917e+01,5.980e+01,2.133e+04,2.144e+04
24.9,5.508e+01,6.462e+01,2.551e+04,2.563e+04
26.5,6.286e+01,7.567e+01,3.028e+04,3.042e+04
28.0,7.564e+01,8.321e+01,3.566e+04,3.582e+04
29.6,8.402e+01,9.004e+01,4.235e+04,4.252e+04
31.1,9.767e+01,9.687e+01,5.046e+04,5.066e+04
32.7,1.285e+02,1.147e+02,6.022e+04,6.046e+04
34.3,1.641e+02,1.379e+02,7.083e+04,7.113e+04
35.8,2.180e+02,1.784e+02,8.373e+04,8.413e+04
37.4,2.802e+02,2.280e+02,9.994e+04,1.005e+05
38.9,3.877e+02,3.135e+02,1.193e+05,1.200e+05
40.5,5.671e+02,4.011e+02,1.436e+05,1.446e+05
42.0,8.427e+02,5.391e+02,1.753e+05,1.767e+05
43.6,1.196e+03,7.365e+02,2.193e+05,2.213e+05
45.2,1.598e+03,9.920e+02,2.793e+05,2.819e+05
46.7,2.206e+03,1.234e+03,3.687e+05,3.721e+05
48.3,3.474e+03,1.715e+03,5.038e+05,5.090e+05
49.8,5.485e+03,2.405e+03,7.219e+05,7.298e+05
51.4,7.556e+03,3.655e+03,9.509e+05,9.621e+05
52.9,1.205e+04,1.104e+04,1.151e+06,1.174e+06
54.5,1.471e+04,2.073e+04,1.449e+06,1.485e+06
56.1,1.445e+04,2.687e+04,1.894e+06,1.936e+06
57.6,1.129e+04,2.939e+04,2.096e+06,2.136e+06
59.2,1.063e+04,2.711e+04,1.640e+06,1.678e+06
60.7,1.442e+04,2.286e+04,1.170e+06,1.207e+06
62.3,1.858e+04,1.511e+04,8.500e+05,8.837e+05
63.8,2.181e+04,1.183e+04,7.008e+05,7.345e+05
65.4,2.029e+04,1.131e+04,7.040e+05,7.356e+05
66.9,1.522e+04,8.934e+03,6.417e+05,6.658e+05
68.5,1.065e+04,6.880e+03,4.946e+05,5.121e+05
70.1,7.844e+03,6.193e+03,3.711e+05,3.852e+05
71.6,5.992e+03,5.623e+03,2.690e+05,2.806e+05
73.2,4.647e+03,4.910e+03,2.053e+05,2.149e+05
74.7,3.014e+03,4.160e+03,1.641e+05,1.713e+05
76.3,1.784e+03,4.172e+03,1.344e+05,1.404e+05
77.8,1.558e+03,4.418e+03,1.038e+05,1.098e+05
79.4,1.521e+03,4.410e+03,8.177e+04,8.770e+04
81.0,1.611e+03,4.412e+03,7.054e+04,7.656e+04
82.5,1.414e+03,3.978e+03,6.324e+04,6.864e+04
84.1,1.048e+03,3.597e+03,5.915e+04,6.379e+04
85.6,1.078e+03,4.454e+03,5.337e+04,5.890e+04
87.2,1.869e+03,6.549e+03,4.825e+04,5.667e+04
88.7,2.467e+03,6.222e+03,4.642e+04,5.511e+04
90.3,3.047e+03,5.706e+03,4.283e+04,5.159e+04
91.9,2.022e+03,3.210e+03,4.175e+04,4.698e+04
93.4,2.544e+03,3.487e+03,5.034e+04,5.637e+04
95.0,5.946e+03,9.222e+03,6.734e+04,8.250e+04
96.5,7.531e+03,1.377e+04,7.798e+04,9.929e+04
98.1,8.911e+03,2.047e+04,7.467e+04,1.041e+05
99.6,1.027e+04,2.804e+04,7.094e+04,1.092e+05
101.2,1.108e+04,3.229e+04,6.639e+04,1.098e+05
102.8,1.095e+04,3.283e+04,5.739e+04,1.012e+05
104.3,9.248e+03,2.821e+04,4.638e+04,8.384e+04
105.9,6.741e+03,2.126e+04,3.709e+04,6.509e+04
107.4,4.949e+03,1.650e+04,2.981e+04,5.126e+04
109.0,4.017e+03,1.345e+04,2.336e+04,4.083e+04
110.5,3.321e+03,1.158e+04,1.787e+04,3.277e+04
112.1,3.162e+03,1.520e+04,1.321e+04,3.157e+04
113.7,5.149e+03,2.914e+04,9.933e+03,4.422e+04
115.2,1.023e+04,4.848e+04,9.149e+03,6.786e+04
116.8,1.622e+04,6.001e+04,1.083e+04,8.706e+04
118.3,1.840e+04,5.958e+04,1.259e+04,9.056e+04
119.9,1.673e+04,5.439e+04,1.363e+04,8.475e+04
121.4,1.335e+04,5.221e+04,1.105e+04,7.661e+04
123.0,1.241e+04,6.163e+04,7.313e+03,8.135e+04
124.6,1.647e+04,8.092e+04,4.727e+03,1.021e+05
126.1,2.776e+04,1.138e+05,3.622e+03,1.452e+05
127.7,3.943e+04,1.724e+05,5.578e+03,2.174e+05
129.2,2.430e+04,1.546e+05,4.870e+03,1.838e+05
130.8,2.215e+04,1.387e+05,7.240e+03,1.681e+05
132.3,2.285e+04,1.224e+05,9.114e+03,1.544e+05
133.9,5.619e+03,2.788e+04,3.436e+03,3.694e+04
135.5,7.405e+02,2.536e+03,2.453e+03,5.729e+03
137.0,7.849e+02,2.076e+03,3.840e+03,6.701e+03
138.6,9.535e+02,2.083e+03,5.280e+03,8.317e+03
140.1,1.289e+03,2.330e+03,7.016e+03,1.063e+04
141.7,1.889e+03,2.926e+03,9.199e+03,1.401e+04
143.2,2.524e+03,3.733e+03,1.078e+04,1.704e+04
144.8,3.155e+03,5.214e+03,1.193e+04,2.030e+04
146.4,3.622e+03,6.551e+03,1.266e+04,2.283e+04
147.9,3.699e+03,5.844e+03,1.334e+04,2.288e+04
149.5,4.646e+03,6.545e+03,1.570e+04,2.689e+04
151.0,5.972e+03,8.926e+03,1.643e+04,3.133e+04
152.6,6.685e+03,9.706e+03,1.689e+04,3.328e+04
154.1,8.237e+03,1.112e+04,1.987e+04,3.923e+04
155.7,9.860e+03,1.408e+04,2.284e+04,4.678e+04
157.3,1.037e+04,1.533e+04,2.455e+04,5.026e+04
158.8,1.026e+04,1.473e+04,2.552e+04,5.051e+04
160.4,1.002e+04,1.551e+04,2.467e+04,5.020e+04
161.9,8.744e+03,1.558e+04,2.070e+04,4.503e+04
163.5,8.228e+03,1.493e+04,1.879e+04,4.194e+04
165.0,9.094e+03,1.677e+04,1.772e+04,4.358e+04
166.6,1.053e+04,1.912e+04,2.012e+04,4.977e+04
168.2,1.182e+04,2.094e+04,2.428e+04,5.705e+04
169.7,1.258e+04,2.097e+04,2.815e+04,6.170e+04
171.3,1.308e+04,2.046e+04,3.079e+04,6.434e+04
172.8,1.246e+04,1.924e+04,3.106e+04,6.276e+04
174.4,8.594e+03,1.482e+04,2.306e+04,4.647e+04
175.9,6.229e+03,1.437e+04,1.733e+04,3.794e+04
177.5,4.866e+03,1.398e+04,1.259e+04,3.143e+04
179.1,4.066e+03,1.364e+04,1.054e+04,2.824e+04
180.6,4.043e+03,1.535e+04,1.080e+04,3.020e+04
182.2,4.050e+03,1.957e+04,1.063e+04,3.425e+04
183.7,3.949e+03,2.228e+04,1.035e+04,3.658e+04
185.3,5.504e+03,2.849e+04,1.448e+04,4.847e+04
186.8,8.128e+03,3.697e+04,2.070e+04,6.580e+04
188.4,1.171e+04,4.743e+04,3.052e+04,8.966e+04
189.9,1.664e+04,5.796e+04,4.685e+04,1.215e+05
191.5,2.693e+04,7.047e+04,7.928e+04,1.767e+05
193.1,3.678e+04,6.999e+04,1.064e+05,2.132e+05
194.6,3.866e+04,5.944e+04,1.078e+05,2.058e+05
196.2,3.637e+04,4.663e+04,1.044e+05,1.874e+05
197.7,4.331e+04,4.333e+04,1.224e+05,2.090e+05
199.3,5.585e+04,4.517e+04,1.524e+05,2.534e+05
